6.749918e+002,1.001816e+002
6.769203e+002,9.998534e+001
6.788489e+002,9.982361e+001
6.807775e+002,9.980513e+001
6.827060e+002,9.976414e+001
6.846346e+002,9.962106e+001
6.865631e+002,9.940752e+001
6.884916e+002,9.934525e+001
6.904202e+002,9.936012e+001
6.923488e+002,9.928116e+001
6.942773e+002,9.909090e+001
6.962059e+002,9.900731e+001
6.981344e+002,9.894180e+001
7.000629e+002,9.887249e+001
7.019915e+002,9.883804e+001
7.039200e+002,9.889815e+001
7.058486e+002,9.888103e+001
7.077772e+002,9.878446e+001
7.097057e+002,9.865098e+001
7.116342e+002,9.855714e+001
7.135628e+002,9.841223e+001
7.154913e+002,9.831536e+001
7.174199e+002,9.823773e+001
7.193484e+002,9.815799e+001
7.212770e+002,9.826064e+001
7.232055e+002,9.864148e+001
7.251341e+002,9.893599e+001
7.270626e+002,9.900490e+001
7.289911e+002,9.904533e+001
7.309197e+002,9.920988e+001
7.328483e+002,9.931606e+001
7.347768e+002,9.938924e+001
7.367054e+002,9.941135e+001
7.386339e+002,9.941782e+001
7.405624e+002,9.946094e+001
7.424910e+002,9.950575e+001
7.444196e+002,9.948389e+001
7.463481e+002,9.947427e+001
7.482767e+002,9.949411e+001
7.502052e+002,9.952734e+001
7.521337e+002,9.951886e+001
7.540623e+002,9.945387e+001
7.559908e+002,9.932567e+001
7.579194e+002,9.927187e+001
7.598480e+002,9.925780e+001
7.617765e+002,9.927554e+001
7.637050e+002,9.925690e+001
7.656336e+002,9.925394e+001
7.675621e+002,9.924586e+001
7.694907e+002,9.916501e+001
7.714193e+002,9.908492e+001
7.733478e+002,9.910291e+001
7.752763e+002,9.908301e+001
7.772049e+002,9.904491e+001
7.791334e+002,9.900426e+001
7.810620e+002,9.898682e+001
7.829905e+002,9.893443e+001
7.849191e+002,9.894385e+001
7.868476e+002,9.891440e+001
7.887762e+002,9.884019e+001
7.907047e+002,9.876231e+001
7.926332e+002,9.872958e+001
7.945618e+002,9.869534e+001
7.964904e+002,9.867847e+001
7.984189e+002,9.865518e+001
8.003475e+002,9.863969e+001
8.022760e+002,9.855286e+001
8.042045e+002,9.847101e+001
8.061331e+002,9.832970e+001
8.080616e+002,9.830613e+001
8.099902e+002,9.846606e+001
8.119187e+002,9.869001e+001
8.138473e+002,9.889301e+001
8.157758e+002,9.902057e+001
8.177043e+002,9.902524e+001
8.196329e+002,9.901834e+001
8.215615e+002,9.902730e+001
8.234900e+002,9.903198e+001
8.254186e+002,9.898965e+001
8.273471e+002,9.894511e+001
8.292756e+002,9.889723e+001
8.312042e+002,9.888902e+001
8.331328e+002,9.885910e+001
8.350613e+002,9.880034e+001
8.369899e+002,9.856224e+001
8.389184e+002,9.824899e+001
8.408469e+002,9.813438e+001
8.427755e+002,9.858234e+001
8.447040e+002,9.916676e+001
8.466326e+002,9.943903e+001
8.485612e+002,9.951690e+001
8.504897e+002,9.954387e+001
8.524182e+002,9.951668e+001
8.543468e+002,9.945903e+001
8.562753e+002,9.946800e+001
8.582039e+002,9.950574e+001
8.601324e+002,9.945285e+001
8.620610e+002,9.943861e+001
8.639895e+002,9.944050e+001
8.659181e+002,9.941248e+001
8.678466e+002,9.935521e+001
8.697751e+002,9.936122e+001
8.717037e+002,9.938730e+001
8.736323e+002,9.938083e+001
8.755608e+002,9.935342e+001
8.774894e+002,9.939411e+001
8.794179e+002,9.939648e+001
8.813464e+002,9.938950e+001
8.832750e+002,9.938444e+001
8.852036e+002,9.939143e+001
8.871321e+002,9.935773e+001
8.890607e+002,9.936201e+001
8.909892e+002,9.932198e+001
8.929177e+002,9.921693e+001
8.948463e+002,9.910429e+001
8.967748e+002,9.905180e+001
8.987034e+002,9.909650e+001
9.006320e+002,9.935023e+001
9.025605e+002,9.966046e+001
9.044890e+002,9.983783e+001
9.064176e+002,9.990051e+001
9.083461e+002,9.995210e+001
9.102747e+002,9.997589e+001
9.122032e+002,9.999316e+001
9.141318e+002,9.999866e+001
9.160603e+002,9.999908e+001
9.179889e+002,9.999307e+001
9.199174e+002,1.000086e+002
9.218459e+002,9.999873e+001
9.237745e+002,9.999499e+001
9.257031e+002,9.996996e+001
9.276316e+002,9.995241e+001
9.295602e+002,9.993606e+001
9.314887e+002,9.989241e+001
9.334172e+002,9.981703e+001
9.353458e+002,9.974667e+001
9.372744e+002,9.966372e+001
9.392029e+002,9.964846e+001
9.411315e+002,9.966581e+001
9.430600e+002,9.970326e+001
9.449885e+002,9.973474e+001
9.469171e+002,9.974866e+001
9.488456e+002,9.974399e+001
9.507742e+002,9.970948e+001
9.527028e+002,9.964676e+001
9.546313e+002,9.957381e+001
9.565598e+002,9.952135e+001
9.584884e+002,9.948118e+001
9.604169e+002,9.935391e+001
9.623455e+002,9.920675e+001
9.642740e+002,9.905093e+001
9.662026e+002,9.886716e+001
9.681311e+002,9.854820e+001
9.700597e+002,9.811157e+001
9.719882e+002,9.789986e+001
9.739167e+002,9.819424e+001
9.758453e+002,9.879878e+001
9.777739e+002,9.939462e+001
9.797024e+002,9.976321e+001
9.816310e+002,9.990610e+001
9.835595e+002,9.991510e+001
9.854880e+002,9.986086e+001
9.874166e+002,9.973283e+001
9.893452e+002,9.956938e+001
9.912737e+002,9.936966e+001
9.932023e+002,9.908010e+001
9.951308e+002,9.873335e+001
9.970593e+002,9.863179e+001
9.989879e+002,9.896966e+001
1.000916e+003,9.949518e+001
1.002845e+003,9.986455e+001
1.004774e+003,1.000303e+002
1.006702e+003,1.000479e+002
1.008631e+003,1.000202e+002
1.010559e+003,1.000020e+002
1.012488e+003,1.000092e+002
1.014416e+003,9.998740e+001
1.016345e+003,9.997832e+001
1.018273e+003,9.998389e+001
1.020202e+003,9.997282e+001
1.022130e+003,9.994598e+001
1.024059e+003,9.993777e+001
1.025988e+003,9.990549e+001
1.027916e+003,9.988835e+001
1.029845e+003,9.988217e+001
1.031773e+003,9.985823e+001
1.033702e+003,9.979372e+001
1.035630e+003,9.975379e+001
1.037559e+003,9.974829e+001
1.039487e+003,9.973217e+001
1.041416e+003,9.971374e+001
1.043344e+003,9.972626e+001
1.045273e+003,9.973318e+001
1.047202e+003,9.975122e+001
1.049130e+003,9.978539e+001
1.051059e+003,9.982059e+001
1.052987e+003,9.981979e+001
1.054916e+003,9.983873e+001
1.056844e+003,9.983603e+001
1.058773e+003,9.981396e+001
1.060701e+003,9.979623e+001
1.062630e+003,9.980279e+001
1.064559e+003,9.980359e+001
1.066487e+003,9.978792e+001
1.068416e+003,9.976881e+001
1.070344e+003,9.978453e+001
1.072273e+003,9.977987e+001
1.074201e+003,9.973140e+001
1.076130e+003,9.966399e+001
1.078058e+003,9.962648e+001
1.079987e+003,9.960826e+001
1.081916e+003,9.962616e+001
1.083844e+003,9.962347e+001
1.085773e+003,9.961604e+001
1.087701e+003,9.959494e+001
1.089630e+003,9.958054e+001
1.091558e+003,9.955821e+001
1.093487e+003,9.950621e+001
1.095415e+003,9.944900e+001
1.097344e+003,9.940382e+001
1.099272e+003,9.935054e+001
1.101201e+003,9.931747e+001
1.103130e+003,9.935497e+001
1.105058e+003,9.946950e+001
1.106987e+003,9.957150e+001
1.108915e+003,9.960380e+001
1.110844e+003,9.959836e+001
1.112772e+003,9.959191e+001
1.114701e+003,9.956734e+001
1.116629e+003,9.955264e+001
1.118558e+003,9.953694e+001
1.120486e+003,9.952493e+001
1.122415e+003,9.951389e+001
1.124344e+003,9.950571e+001
1.126272e+003,9.950876e+001
1.128201e+003,9.950505e+001
1.130129e+003,9.951047e+001
1.132058e+003,9.948640e+001
1.133986e+003,9.943271e+001
1.135915e+003,9.940855e+001
1.137843e+003,9.936214e+001
1.139772e+003,9.926044e+001
1.141700e+003,9.913256e+001
1.143629e+003,9.905478e+001
1.145558e+003,9.899536e+001
1.147486e+003,9.891049e+001
1.149415e+003,9.881749e+001
1.151343e+003,9.875815e+001
1.153272e+003,9.875674e+001
1.155200e+003,9.878709e+001
1.157129e+003,9.879750e+001
1.159057e+003,9.878136e+001
1.160986e+003,9.873287e+001
1.162915e+003,9.866779e+001
1.164843e+003,9.859598e+001
1.166772e+003,9.864901e+001
1.168700e+003,9.889263e+001
1.170629e+003,9.927103e+001
1.172557e+003,9.964159e+001
1.174486e+003,9.990044e+001
1.176414e+003,1.000231e+002
1.178343e+003,1.000725e+002
1.180271e+003,1.000853e+002
1.182200e+003,1.000441e+002
1.184129e+003,1.000135e+002
1.186057e+003,9.999875e+001
1.187986e+003,9.998598e+001
1.189914e+003,1.000004e+002
1.191843e+003,9.998782e+001
1.193771e+003,9.996828e+001
1.195700e+003,9.994768e+001
1.197628e+003,9.992313e+001
1.199557e+003,9.990485e+001
1.201485e+003,9.988875e+001
1.203414e+003,9.986368e+001
1.205343e+003,9.984902e+001
1.207271e+003,9.984206e+001
1.209200e+003,9.982475e+001
1.211128e+003,9.978667e+001
1.213057e+003,9.973484e+001
1.214985e+003,9.972393e+001
1.216914e+003,9.973737e+001
1.218842e+003,9.973978e+001
1.220771e+003,9.974196e+001
1.222699e+003,9.977188e+001
1.224628e+003,9.980477e+001
1.226557e+003,9.983223e+001
1.228485e+003,9.984660e+001
1.230414e+003,9.985151e+001
1.232342e+003,9.985384e+001
1.234271e+003,9.985359e+001
1.236199e+003,9.984513e+001
1.238128e+003,9.983147e+001
1.240056e+003,9.981152e+001
1.241985e+003,9.980254e+001
1.243914e+003,9.980443e+001
1.245842e+003,9.978342e+001
1.247771e+003,9.975859e+001
1.249699e+003,9.974577e+001
1.251628e+003,9.969083e+001
1.253556e+003,9.961874e+001
1.255485e+003,9.962946e+001
1.257413e+003,9.973969e+001
1.259342e+003,9.985008e+001
1.261271e+003,9.991579e+001
1.263199e+003,9.994662e+001
1.265128e+003,9.997565e+001
1.267056e+003,9.999042e+001
1.268985e+003,9.998689e+001
1.270913e+003,9.998288e+001
1.272842e+003,9.997186e+001
1.274770e+003,9.997138e+001
1.276699e+003,9.998242e+001
1.278627e+003,9.996288e+001
1.280556e+003,9.992606e+001
1.282484e+003,9.992255e+001
1.284413e+003,9.992001e+001
1.286342e+003,9.988496e+001
1.288270e+003,9.983614e+001
1.290199e+003,9.979924e+001
1.292127e+003,9.976836e+001
1.294056e+003,9.973219e+001
1.295984e+003,9.973565e+001
1.297913e+003,9.975256e+001
1.299841e+003,9.977420e+001
1.301770e+003,9.978710e+001
1.303698e+003,9.979083e+001
1.305627e+003,9.986659e+001
1.307556e+003,9.998186e+001
1.309484e+003,1.000336e+002
1.311413e+003,1.000309e+002
1.313341e+003,9.998202e+001
1.315270e+003,9.987891e+001
1.317198e+003,9.979198e+001
1.319127e+003,9.969578e+001
1.321055e+003,9.957130e+001
1.322984e+003,9.944884e+001
1.324913e+003,9.931384e+001
1.326841e+003,9.919492e+001
1.328770e+003,9.909755e+001
1.330698e+003,9.905371e+001
1.332627e+003,9.902908e+001
1.334555e+003,9.896960e+001
1.336484e+003,9.885594e+001
1.338412e+003,9.873504e+001
1.340341e+003,9.856209e+001
1.342270e+003,9.838849e+001
1.344198e+003,9.820026e+001
1.346127e+003,9.799709e+001
1.348055e+003,9.776232e+001
1.349984e+003,9.747536e+001
1.351912e+003,9.710889e+001
1.353841e+003,9.671288e+001
1.355769e+003,9.631768e+001
1.357698e+003,9.610809e+001
1.359626e+003,9.610371e+001
1.361555e+003,9.620084e+001
1.363484e+003,9.611246e+001
1.365412e+003,9.578143e+001
1.367341e+003,9.509621e+001
1.369269e+003,9.385234e+001
1.371198e+003,9.221788e+001
1.373126e+003,9.033843e+001
1.375055e+003,8.889694e+001
1.376983e+003,9.018388e+001
1.378912e+003,9.373730e+001
1.380840e+003,9.736089e+001
1.382769e+003,9.938753e+001
1.384698e+003,1.001108e+002
1.386626e+003,1.001844e+002
1.388555e+003,9.993795e+001
1.390483e+003,9.972294e+001
1.392412e+003,9.953080e+001
1.394340e+003,9.936552e+001
1.396269e+003,9.918121e+001
1.398197e+003,9.905922e+001
1.400126e+003,9.890155e+001
1.402054e+003,9.878712e+001
1.403983e+003,9.866654e+001
1.405912e+003,9.853630e+001
1.407840e+003,9.841845e+001
1.409769e+003,9.830203e+001
1.411697e+003,9.817654e+001
1.413626e+003,9.806146e+001
1.415554e+003,9.794803e+001
1.417483e+003,9.786104e+001
1.419411e+003,9.768613e+001
1.421340e+003,9.752138e+001
1.423269e+003,9.737930e+001
1.425197e+003,9.716922e+001
1.427125e+003,9.692806e+001
1.429054e+003,9.659749e+001
1.430983e+003,9.608859e+001
1.432911e+003,9.556172e+001
1.434840e+003,9.522116e+001
1.436768e+003,9.516000e+001
1.438697e+003,9.513172e+001
1.440625e+003,9.488759e+001
1.442554e+003,9.441964e+001
1.444482e+003,9.376782e+001
1.446411e+003,9.305322e+001
1.448340e+003,9.222218e+001
1.450268e+003,9.173296e+001
1.452197e+003,9.155817e+001
1.454125e+003,9.159737e+001
1.456054e+003,9.174175e+001
1.457982e+003,9.237507e+001
1.459911e+003,9.286427e+001
1.461839e+003,9.337846e+001
1.463768e+003,9.424915e+001
1.465697e+003,9.587278e+001
1.467625e+003,9.711323e+001
1.469554e+003,9.801345e+001
1.471482e+003,9.881029e+001
1.473411e+003,9.971078e+001
1.475339e+003,9.999081e+001
1.477268e+003,1.000396e+002
1.479196e+003,1.000136e+002
1.481125e+003,9.997907e+001
1.483053e+003,9.993044e+001
1.484982e+003,9.989056e+001
1.486911e+003,9.988188e+001
1.488839e+003,9.987068e+001
1.490768e+003,9.975949e+001
1.492696e+003,9.967995e+001
1.494625e+003,9.966735e+001
1.496553e+003,9.966193e+001
1.498482e+003,9.963326e+001
1.500410e+003,9.958595e+001
1.502339e+003,9.956911e+001
1.504268e+003,9.957986e+001
1.506196e+003,9.966269e+001
1.508125e+003,9.961633e+001
1.510053e+003,9.951192e+001
1.511982e+003,9.947511e+001
1.513910e+003,9.947655e+001
1.515839e+003,9.946452e+001
1.517767e+003,9.944704e+001
1.519696e+003,9.944545e+001
1.521625e+003,9.941316e+001
1.523553e+003,9.936288e+001
1.525481e+003,9.935955e+001
1.527410e+003,9.931386e+001
1.529339e+003,9.925970e+001
1.531267e+003,9.924592e+001
1.533196e+003,9.922920e+001
1.535124e+003,9.916453e+001
1.537053e+003,9.912564e+001
1.538981e+003,9.908771e+001
1.540910e+003,9.919471e+001
1.542838e+003,9.925462e+001
1.544767e+003,9.916994e+001
1.546696e+003,9.910355e+001
1.548624e+003,9.912061e+001
1.550553e+003,9.913840e+001
1.552481e+003,9.910579e+001
1.554410e+003,9.908734e+001
1.556338e+003,9.912383e+001
1.558267e+003,9.921758e+001
1.560195e+003,9.908958e+001
1.562124e+003,9.901348e+001
1.564052e+003,9.900340e+001
1.565981e+003,9.901271e+001
1.567910e+003,9.902896e+001
1.569838e+003,9.901781e+001
1.571767e+003,9.898112e+001
1.573695e+003,9.895859e+001
1.575624e+003,9.897316e+001
1.577552e+003,9.897955e+001
1.579481e+003,9.895356e+001
1.581409e+003,9.893079e+001
1.583338e+003,9.891621e+001
1.585267e+003,9.891258e+001
1.587195e+003,9.892833e+001
1.589124e+003,9.893497e+001
1.591052e+003,9.895131e+001
1.592981e+003,9.897792e+001
1.594909e+003,9.898677e+001
1.596838e+003,9.899829e+001
1.598766e+003,9.901568e+001
1.600695e+003,9.904298e+001
1.602624e+003,9.908019e+001
1.604552e+003,9.910580e+001
1.606480e+003,9.913593e+001
1.608409e+003,9.918854e+001
1.610338e+003,9.922130e+001
1.612266e+003,9.922310e+001
1.614195e+003,9.922762e+001
1.616123e+003,9.924760e+001
1.618052e+003,9.927939e+001
1.619980e+003,9.928262e+001
1.621909e+003,9.929136e+001
1.623837e+003,9.930063e+001
1.625766e+003,9.928250e+001
1.627695e+003,9.931023e+001
1.629623e+003,9.934358e+001
1.631552e+003,9.934975e+001
1.633480e+003,9.937020e+001
1.635409e+003,9.940968e+001
1.637337e+003,9.946747e+001
1.639266e+003,9.946036e+001
1.641194e+003,9.943147e+001
1.643123e+003,9.942795e+001
1.645052e+003,9.946515e+001
1.646980e+003,9.950363e+001
1.648909e+003,9.950133e+001
1.650837e+003,9.950280e+001
1.652766e+003,9.949542e+001
1.654694e+003,9.953712e+001
1.656623e+003,9.952765e+001
1.658551e+003,9.953024e+001
1.660480e+003,9.955006e+001
1.662408e+003,9.957929e+001
1.664337e+003,9.959849e+001
1.666266e+003,9.961572e+001
1.668194e+003,9.964246e+001
1.670123e+003,9.965805e+001
1.672051e+003,9.966208e+001
1.673980e+003,9.969159e+001
1.675908e+003,9.972836e+001
1.677837e+003,9.973373e+001
1.679765e+003,9.974687e+001
1.681694e+003,9.979882e+001
1.683623e+003,9.987064e+001
1.685551e+003,9.986607e+001
1.687479e+003,9.984283e+001
1.689408e+003,9.985926e+001
1.691337e+003,9.986342e+001
1.693265e+003,9.987292e+001
1.695194e+003,9.991039e+001
1.697122e+003,9.994447e+001
1.699051e+003,9.994795e+001
1.700979e+003,9.997982e+001
1.702908e+003,9.998413e+001
1.704837e+003,9.997025e+001
1.706765e+003,9.994805e+001
1.708694e+003,9.995889e+001
1.710622e+003,9.998080e+001
1.712551e+003,9.999843e+001
1.714479e+003,1.000159e+002
1.716408e+003,1.000513e+002
1.718336e+003,1.000249e+002
1.720265e+003,9.997980e+001
1.722193e+003,9.997398e+001
1.724122e+003,9.998576e+001
1.726051e+003,9.999234e+001
1.727979e+003,9.999918e+001
1.729908e+003,1.000054e+002
1.731836e+003,1.000085e+002
1.733765e+003,9.998308e+001
1.735693e+003,9.995789e+001
1.737622e+003,9.996916e+001
1.739550e+003,9.997417e+001
1.741479e+003,9.997929e+001
1.743407e+003,9.998883e+001
1.745336e+003,9.999744e+001
1.747265e+003,1.000332e+002
1.749193e+003,1.000850e+002
1.751122e+003,1.000987e+002
1.753050e+003,1.000997e+002
1.754979e+003,1.001119e+002
1.756907e+003,1.001107e+002
1.758836e+003,1.001214e+002
1.760764e+003,1.001261e+002
1.762693e+003,1.001120e+002
1.764621e+003,1.001140e+002
1.766550e+003,1.001279e+002
1.768479e+003,1.001436e+002
1.770407e+003,1.001661e+002
1.772336e+003,1.001499e+002
1.774264e+003,1.001137e+002
1.776193e+003,1.001144e+002
1.778121e+003,1.001260e+002
1.780050e+003,1.001128e+002
1.781978e+003,1.001034e+002
1.783907e+003,1.000914e+002
1.785836e+003,1.000885e+002
1.787764e+003,1.001032e+002
1.789693e+003,1.001192e+002
1.791621e+003,1.001138e+002
1.793550e+003,1.000956e+002
1.795478e+003,1.000776e+002
1.797407e+003,1.000878e+002
1.799335e+003,1.001003e+002
1.801264e+003,1.000747e+002
1.803193e+003,1.000545e+002
1.805121e+003,1.000538e+002
1.807050e+003,1.000583e+002
1.808978e+003,1.000697e+002
1.810907e+003,1.000683e+002
1.812835e+003,1.000541e+002
1.814764e+003,1.000377e+002
1.816692e+003,1.000361e+002
1.818621e+003,1.000483e+002
1.820549e+003,1.000580e+002
1.822478e+003,1.000639e+002
1.824406e+003,1.000579e+002
1.826335e+003,1.000554e+002
1.828264e+003,1.000521e+002
1.830192e+003,1.000452e+002
1.832121e+003,1.000448e+002
1.834049e+003,1.000359e+002
1.835978e+003,1.000213e+002
1.837906e+003,1.000198e+002
1.839835e+003,1.000396e+002
1.841763e+003,1.000554e+002
1.843692e+003,1.000567e+002
1.845620e+003,1.000400e+002
1.847549e+003,1.000348e+002
1.849478e+003,1.000284e+002
1.851406e+003,1.000234e+002
1.853335e+003,1.000140e+002
1.855263e+003,1.000209e+002
1.857192e+003,1.000323e+002
1.859120e+003,1.000195e+002
1.861049e+003,1.000155e+002
1.862977e+003,1.000158e+002
1.864906e+003,1.000161e+002
1.866835e+003,1.000206e+002
1.868763e+003,1.000190e+002
1.870692e+003,1.000200e+002
1.872620e+003,1.000043e+002
1.874549e+003,1.000007e+002
1.876477e+003,1.000079e+002
1.878406e+003,1.000037e+002
1.880334e+003,1.000067e+002
1.882263e+003,1.000099e+002
1.884192e+003,9.999688e+001
1.886120e+003,9.998601e+001
1.888049e+003,9.997707e+001
1.889977e+003,9.998046e+001
1.891906e+003,9.999217e+001
1.893834e+003,9.999411e+001
1.895763e+003,9.999186e+001
1.897691e+003,1.000036e+002
1.899620e+003,1.000048e+002
1.901548e+003,9.999581e+001
1.903477e+003,9.998900e+001
1.905406e+003,9.999461e+001
1.907334e+003,9.999519e+001
1.909263e+003,9.999010e+001
1.911191e+003,9.998138e+001
1.913120e+003,9.998872e+001
1.915048e+003,9.999825e+001
1.916977e+003,9.998694e+001
1.918905e+003,9.998471e+001
1.920834e+003,9.998660e+001
1.922762e+003,9.998315e+001
1.924691e+003,9.998990e+001
1.926620e+003,1.000026e+002
1.928548e+003,1.000043e+002
1.930477e+003,9.999351e+001
1.932405e+003,9.999416e+001
1.934334e+003,1.000038e+002
1.936262e+003,1.000008e+002
1.938191e+003,9.999181e+001
1.940119e+003,1.000019e+002
1.942048e+003,1.000195e+002
1.943976e+003,1.000110e+002
1.945905e+003,9.998089e+001
1.947834e+003,9.998004e+001
1.949762e+003,9.999049e+001
1.951691e+003,9.998999e+001
1.953619e+003,9.999364e+001
1.955548e+003,9.999953e+001
1.957476e+003,9.999584e+001
1.959405e+003,9.998813e+001
1.961333e+003,9.998542e+001
1.963262e+003,9.999679e+001
1.965191e+003,9.999989e+001
1.967119e+003,9.999680e+001
1.969048e+003,1.000019e+002
1.970976e+003,1.000072e+002
1.972905e+003,9.999986e+001
1.974833e+003,9.999371e+001
1.976762e+003,1.000035e+002
1.978690e+003,1.000157e+002
1.980619e+003,1.000152e+002
1.982547e+003,1.000151e+002
1.984476e+003,1.000009e+002
1.986405e+003,9.998404e+001
1.988333e+003,9.998245e+001
1.990262e+003,9.999402e+001
1.992190e+003,9.999551e+001
1.994119e+003,9.999869e+001
1.996047e+003,1.000077e+002
1.997976e+003,9.999865e+001
1.999904e+003,9.998828e+001
2.001833e+003,9.999112e+001
2.003761e+003,9.999132e+001
2.005690e+003,9.998888e+001
2.007619e+003,9.998398e+001
2.009547e+003,9.999133e+001
2.011476e+003,1.000018e+002
2.013404e+003,9.999776e+001
2.015333e+003,9.999010e+001
2.017261e+003,9.999591e+001
2.019190e+003,9.999066e+001
2.021118e+003,9.999059e+001
2.023047e+003,9.999866e+001
2.024975e+003,1.000081e+002
2.026904e+003,9.999912e+001
2.028833e+003,9.999179e+001
2.030761e+003,9.998122e+001
2.032690e+003,9.998355e+001
2.034618e+003,9.999055e+001
2.036547e+003,9.999632e+001
2.038475e+003,1.000028e+002
2.040404e+003,1.000137e+002
2.042332e+003,1.000114e+002
2.044261e+003,1.000041e+002
2.046190e+003,9.998590e+001
2.048118e+003,9.997801e+001
2.050047e+003,1.000009e+002
2.051975e+003,1.000141e+002
2.053904e+003,1.000036e+002
2.055832e+003,1.000026e+002
2.057761e+003,1.000090e+002
2.059689e+003,1.000246e+002
2.061618e+003,1.000174e+002
2.063546e+003,1.000119e+002
2.065475e+003,1.000187e+002
2.067404e+003,1.000082e+002
2.069332e+003,1.000016e+002
2.071261e+003,1.000098e+002
2.073189e+003,1.000168e+002
2.075118e+003,1.000207e+002
2.077046e+003,1.000113e+002
2.078975e+003,1.000043e+002
2.080903e+003,1.000016e+002
2.082832e+003,1.000118e+002
2.084760e+003,1.000100e+002
2.086689e+003,9.999596e+001
2.088618e+003,9.999281e+001
2.090546e+003,9.999629e+001
2.092475e+003,9.999222e+001
2.094403e+003,9.998312e+001
2.096332e+003,9.999821e+001
2.098260e+003,1.000148e+002
2.100189e+003,1.000056e+002
2.102117e+003,9.999118e+001
2.104046e+003,9.999504e+001
2.105975e+003,1.000121e+002
2.107903e+003,1.000085e+002
2.109832e+003,9.999500e+001
2.111760e+003,9.999382e+001
2.113689e+003,1.000023e+002
2.115617e+003,1.000009e+002
2.117546e+003,1.000103e+002
2.119474e+003,1.000148e+002
2.121403e+003,1.000065e+002
2.123332e+003,1.000054e+002
2.125260e+003,1.000080e+002
2.127188e+003,1.000159e+002
2.129117e+003,1.000198e+002
2.131046e+003,1.000193e+002
2.132974e+003,1.000221e+002
2.134903e+003,1.000055e+002
2.136831e+003,9.999055e+001
2.138760e+003,9.999799e+001
2.140688e+003,9.999644e+001
2.142617e+003,9.999554e+001
2.144545e+003,1.000075e+002
2.146474e+003,1.000131e+002
2.148403e+003,1.000109e+002
2.150331e+003,1.000015e+002
2.152260e+003,1.000016e+002
2.154188e+003,9.999268e+001
2.156117e+003,9.997217e+001
2.158045e+003,9.997657e+001
2.159974e+003,9.999126e+001
2.161902e+003,9.999150e+001
2.163831e+003,9.999039e+001
2.165760e+003,9.998536e+001
2.167688e+003,9.998317e+001
2.169617e+003,9.998520e+001
2.171545e+003,9.999930e+001
2.173474e+003,1.000043e+002
2.175402e+003,9.999207e+001
2.177331e+003,9.999140e+001
2.179259e+003,9.999159e+001
2.181188e+003,9.998166e+001
2.183116e+003,9.998541e+001
2.185045e+003,9.999795e+001
2.186974e+003,9.999066e+001
2.188902e+003,9.998149e+001
2.190831e+003,9.999754e+001
2.192759e+003,1.000070e+002
2.194688e+003,1.000011e+002
2.196616e+003,9.999994e+001
2.198545e+003,1.000014e+002
2.200473e+003,9.999828e+001
2.202402e+003,1.000110e+002
2.204331e+003,1.000106e+002
2.206259e+003,9.999667e+001
2.208188e+003,1.000011e+002
2.210116e+003,1.000163e+002
2.212045e+003,1.000228e+002
2.213973e+003,1.000266e+002
2.215902e+003,1.000260e+002
2.217830e+003,1.000237e+002
2.219759e+003,1.000134e+002
2.221688e+003,1.000014e+002
2.223616e+003,1.000040e+002
2.225544e+003,1.000147e+002
2.227473e+003,1.000096e+002
2.229402e+003,1.000025e+002
2.231330e+003,1.000021e+002
2.233259e+003,9.999882e+001
2.235187e+003,9.999348e+001
2.237116e+003,1.000020e+002
2.239044e+003,1.000168e+002
2.240973e+003,1.000290e+002
2.242901e+003,1.000188e+002
2.244830e+003,1.000009e+002
2.246759e+003,1.000076e+002
2.248687e+003,1.000161e+002
2.250616e+003,1.000059e+002
2.252544e+003,1.000129e+002
2.254473e+003,1.000198e+002
2.256401e+003,1.000133e+002
2.258330e+003,1.000075e+002
2.260258e+003,1.000051e+002
2.262187e+003,9.999226e+001
2.264115e+003,9.999007e+001
2.266044e+003,9.999690e+001
2.267973e+003,1.000052e+002
2.269901e+003,1.000056e+002
2.271830e+003,1.000137e+002
2.273758e+003,1.000158e+002
2.275687e+003,1.000032e+002
2.277615e+003,9.999959e+001
2.279544e+003,1.000117e+002
2.281472e+003,1.000270e+002
2.283401e+003,1.000353e+002
2.285330e+003,1.000263e+002
2.287258e+003,1.000293e+002
2.289187e+003,1.000327e+002
2.291115e+003,1.000247e+002
2.293044e+003,1.000200e+002
2.294972e+003,1.000245e+002
2.296901e+003,1.000263e+002
2.298829e+003,1.000238e+002
2.300758e+003,1.000292e+002
2.302687e+003,1.000279e+002
2.304615e+003,1.000339e+002
2.306543e+003,1.000348e+002
2.308472e+003,1.000115e+002
2.310401e+003,1.000028e+002
2.312329e+003,1.000269e+002
2.314258e+003,1.000435e+002
2.316186e+003,1.000361e+002
2.318115e+003,1.000402e+002
2.320043e+003,1.000324e+002
2.321972e+003,1.000359e+002
2.323900e+003,1.000315e+002
2.325829e+003,1.000379e+002
2.327758e+003,1.000781e+002
2.329686e+003,1.001165e+002
2.331615e+003,1.001356e+002
2.333543e+003,1.001771e+002
2.335472e+003,1.002004e+002
2.337400e+003,1.001630e+002
2.339329e+003,1.000686e+002
2.341257e+003,1.000138e+002
2.343186e+003,1.000413e+002
2.345115e+003,1.000806e+002
2.347043e+003,1.000301e+002
2.348972e+003,1.000324e+002
2.350900e+003,1.000403e+002
2.352829e+003,1.000914e+002
2.354757e+003,1.001888e+002
2.356686e+003,1.003041e+002
2.358614e+003,1.002506e+002
2.360543e+003,1.001170e+002
2.362471e+003,1.001557e+002
2.364400e+003,1.000789e+002
2.366329e+003,9.997386e+001
2.368257e+003,1.000556e+002
2.370186e+003,1.000617e+002
2.372114e+003,1.000576e+002
2.374043e+003,1.000194e+002
2.375971e+003,9.998356e+001
2.377900e+003,9.997731e+001
2.379828e+003,9.997511e+001
2.381757e+003,9.998375e+001
2.383686e+003,9.999255e+001
2.385614e+003,9.999773e+001
2.387542e+003,1.000152e+002
2.389471e+003,1.000173e+002
2.391400e+003,9.999480e+001
2.393328e+003,9.997604e+001
2.395257e+003,9.998059e+001
2.397185e+003,9.999890e+001
2.399114e+003,1.000035e+002
2.401042e+003,9.999660e+001
2.402971e+003,1.000001e+002
2.404899e+003,9.999712e+001
2.406828e+003,9.999945e+001
2.408757e+003,1.000051e+002
2.410685e+003,1.000251e+002
2.412614e+003,1.000331e+002
2.414542e+003,1.000104e+002
2.416471e+003,1.000085e+002
2.418399e+003,1.000171e+002
2.420328e+003,1.000249e+002
2.422256e+003,1.000366e+002
2.424185e+003,1.000338e+002
2.426114e+003,1.000202e+002
2.428042e+003,1.000124e+002
2.429971e+003,1.000089e+002
2.431899e+003,1.000095e+002
2.433828e+003,1.000308e+002
2.435756e+003,1.000453e+002
2.437685e+003,1.000425e+002
2.439613e+003,1.000264e+002
2.441542e+003,1.000158e+002
2.443470e+003,1.000108e+002
2.445399e+003,1.000172e+002
2.447328e+003,1.000331e+002
2.449256e+003,1.000444e+002
2.451185e+003,1.000331e+002
2.453113e+003,1.000522e+002
2.455042e+003,1.000715e+002
2.456970e+003,1.000797e+002
2.458899e+003,1.000694e+002
2.460827e+003,1.000501e+002
2.462756e+003,1.000590e+002
2.464685e+003,1.000846e+002
2.466613e+003,1.000785e+002
2.468542e+003,1.000668e+002
2.470470e+003,1.000739e+002
2.472399e+003,1.000792e+002
2.474327e+003,1.000784e+002
2.476256e+003,1.000738e+002
2.478184e+003,1.000616e+002
2.480113e+003,1.000673e+002
2.482042e+003,1.000779e+002
2.483970e+003,1.000682e+002
2.485898e+003,1.000677e+002
2.487827e+003,1.000944e+002
2.489756e+003,1.000963e+002
2.491684e+003,1.000763e+002
2.493613e+003,1.000794e+002
2.495541e+003,1.000912e+002
2.497470e+003,1.001025e+002
2.499398e+003,1.001154e+002
2.501327e+003,1.001148e+002
2.503255e+003,1.001113e+002
2.505184e+003,1.000967e+002
2.507113e+003,1.000963e+002
2.509041e+003,1.001026e+002
2.510970e+003,1.001089e+002
2.512898e+003,1.000939e+002
2.514827e+003,1.000809e+002
2.516755e+003,1.000794e+002
2.518684e+003,1.000893e+002
2.520612e+003,1.000829e+002
2.522541e+003,1.000810e+002
2.524469e+003,1.000898e+002
2.526398e+003,1.000894e+002
2.528327e+003,1.000839e+002
2.530255e+003,1.000862e+002
2.532184e+003,1.000888e+002
2.534112e+003,1.000783e+002
2.536041e+003,1.000731e+002
2.537969e+003,1.000638e+002
2.539898e+003,1.000560e+002
2.541826e+003,1.000724e+002
2.543755e+003,1.000690e+002
2.545684e+003,1.000603e+002
2.547612e+003,1.000719e+002
2.549541e+003,1.000778e+002
2.551469e+003,1.000643e+002
2.553398e+003,1.000422e+002
2.555326e+003,1.000217e+002
2.557255e+003,1.000302e+002
2.559183e+003,1.000315e+002
2.561112e+003,1.000261e+002
2.563041e+003,1.000206e+002
2.564969e+003,1.000175e+002
2.566897e+003,1.000052e+002
2.568826e+003,1.000137e+002
2.570755e+003,1.000214e+002
2.572683e+003,9.999835e+001
2.574612e+003,9.998257e+001
2.576540e+003,9.999841e+001
2.578469e+003,1.000114e+002
2.580397e+003,1.000023e+002
2.582326e+003,1.000000e+002
2.584254e+003,1.000129e+002
2.586183e+003,1.000299e+002
2.588112e+003,1.000685e+002
2.590040e+003,1.000723e+002
2.591969e+003,1.000596e+002
2.593897e+003,1.000468e+002
2.595826e+003,1.000581e+002
2.597754e+003,1.000687e+002
2.599683e+003,1.000478e+002
2.601611e+003,1.000352e+002
2.603540e+003,1.000320e+002
2.605469e+003,1.000170e+002
2.607397e+003,1.000120e+002
2.609326e+003,1.000037e+002
2.611254e+003,9.995924e+001
2.613183e+003,9.993922e+001
2.615111e+003,9.992433e+001
2.617040e+003,9.990244e+001
2.618968e+003,9.988019e+001
2.620897e+003,9.984946e+001
2.622825e+003,9.982722e+001
2.624754e+003,9.981055e+001
2.626683e+003,9.977190e+001
2.628611e+003,9.973511e+001
2.630540e+003,9.971767e+001
2.632468e+003,9.970421e+001
2.634397e+003,9.967377e+001
2.636325e+003,9.963151e+001
2.638254e+003,9.961803e+001
2.640182e+003,9.960192e+001
2.642111e+003,9.956061e+001
2.644040e+003,9.950850e+001
2.645968e+003,9.947389e+001
2.647896e+003,9.943346e+001
2.649825e+003,9.940494e+001
2.651754e+003,9.937328e+001
2.653682e+003,9.932709e+001
2.655611e+003,9.929778e+001
2.657539e+003,9.927788e+001
2.659468e+003,9.923915e+001
2.661396e+003,9.922080e+001
2.663325e+003,9.920161e+001
2.665253e+003,9.915224e+001
2.667182e+003,9.910382e+001
2.669111e+003,9.907129e+001
2.671039e+003,9.905367e+001
2.672968e+003,9.904787e+001
2.674896e+003,9.902494e+001
2.676825e+003,9.897213e+001
2.678753e+003,9.892905e+001
2.680682e+003,9.891603e+001
2.682610e+003,9.890782e+001
2.684539e+003,9.887209e+001
2.686468e+003,9.883740e+001
2.688396e+003,9.879241e+001
2.690325e+003,9.874992e+001
2.692253e+003,9.872703e+001
2.694182e+003,9.869064e+001
2.696110e+003,9.865527e+001
2.698039e+003,9.862332e+001
2.699967e+003,9.858395e+001
2.701896e+003,9.852722e+001
2.703824e+003,9.846008e+001
2.705753e+003,9.841602e+001
2.707682e+003,9.836649e+001
2.709610e+003,9.828810e+001
2.711539e+003,9.821875e+001
2.713467e+003,9.816077e+001
2.715396e+003,9.812178e+001
2.717324e+003,9.805821e+001
2.719253e+003,9.795686e+001
2.721181e+003,9.790935e+001
2.723110e+003,9.792337e+001
2.725039e+003,9.792079e+001
2.726967e+003,9.793133e+001
2.728896e+003,9.794777e+001
2.730824e+003,9.794396e+001
2.732752e+003,9.794564e+001
2.734681e+003,9.791807e+001
2.736610e+003,9.786989e+001
2.738538e+003,9.784050e+001
2.740467e+003,9.782204e+001
2.742396e+003,9.780697e+001
2.744324e+003,9.774966e+001
2.746252e+003,9.767999e+001
2.748181e+003,9.764644e+001
2.750109e+003,9.761076e+001
2.752038e+003,9.756985e+001
2.753967e+003,9.753230e+001
2.755895e+003,9.746030e+001
2.757824e+003,9.739706e+001
2.759752e+003,9.733951e+001
2.761681e+003,9.726152e+001
2.763609e+003,9.719109e+001
2.765538e+003,9.714328e+001
2.767466e+003,9.710722e+001
2.769395e+003,9.705228e+001
2.771324e+003,9.697275e+001
2.773252e+003,9.691903e+001
2.775181e+003,9.683793e+001
2.777109e+003,9.673733e+001
2.779038e+003,9.664961e+001
2.780966e+003,9.657027e+001
2.782895e+003,9.648885e+001
2.784823e+003,9.639857e+001
2.786752e+003,9.629987e+001
2.788681e+003,9.620609e+001
2.790609e+003,9.609415e+001
2.792538e+003,9.598412e+001
2.794466e+003,9.589122e+001
2.796395e+003,9.578702e+001
2.798323e+003,9.568335e+001
2.800252e+003,9.558171e+001
2.802180e+003,9.545973e+001
2.804109e+003,9.531555e+001
2.806038e+003,9.515318e+001
2.807966e+003,9.498802e+001
2.809895e+003,9.484129e+001
2.811823e+003,9.468489e+001
2.813751e+003,9.449972e+001
2.815680e+003,9.431757e+001
2.817609e+003,9.413911e+001
2.819537e+003,9.390881e+001
2.821466e+003,9.361645e+001
2.823395e+003,9.327374e+001
2.825323e+003,9.284698e+001
2.827251e+003,9.228622e+001
2.829180e+003,9.156070e+001
2.831108e+003,9.063901e+001
2.833037e+003,8.958850e+001
2.834966e+003,8.874867e+001
2.836894e+003,8.846362e+001
2.838823e+003,8.873940e+001
2.840751e+003,8.933559e+001
2.842680e+003,8.998639e+001
2.844608e+003,9.045149e+001
2.846537e+003,9.061926e+001
2.848465e+003,9.064787e+001
2.850394e+003,9.080423e+001
2.852323e+003,9.116942e+001
2.854251e+003,9.153321e+001
2.856180e+003,9.163048e+001
2.858108e+003,9.141485e+001
2.860037e+003,9.088952e+001
2.861965e+003,9.008115e+001
2.863894e+003,8.923385e+001
2.865822e+003,8.872679e+001
2.867751e+003,8.868942e+001
2.869680e+003,8.887894e+001
2.871608e+003,8.899458e+001
2.873537e+003,8.899100e+001
2.875465e+003,8.895625e+001
2.877394e+003,8.902155e+001
2.879322e+003,8.922205e+001
2.881251e+003,8.945802e+001
2.883179e+003,8.957164e+001
2.885108e+003,8.955466e+001
2.887037e+003,8.943285e+001
2.888965e+003,8.921204e+001
2.890894e+003,8.889875e+001
2.892822e+003,8.846701e+001
2.894750e+003,8.795668e+001
2.896679e+003,8.738190e+001
2.898608e+003,8.674757e+001
2.900536e+003,8.607993e+001
2.902465e+003,8.538934e+001
2.904394e+003,8.473422e+001
2.906322e+003,8.412447e+001
2.908250e+003,8.350749e+001
2.910179e+003,8.281083e+001
2.912107e+003,8.200999e+001
2.914036e+003,8.123463e+001
2.915965e+003,8.080637e+001
2.917893e+003,8.099199e+001
2.919822e+003,8.181126e+001
2.921750e+003,8.303670e+001
2.923679e+003,8.440563e+001
2.925607e+003,8.585841e+001
2.927536e+003,8.745139e+001
2.929464e+003,8.905292e+001
2.931393e+003,9.054904e+001
2.933322e+003,9.178976e+001
2.935250e+003,9.259219e+001
2.937179e+003,9.288770e+001
2.939107e+003,9.265100e+001
2.941036e+003,9.186823e+001
2.942964e+003,9.057130e+001
2.944893e+003,8.900179e+001
2.946821e+003,8.766620e+001
2.948750e+003,8.702301e+001
2.950679e+003,8.720842e+001
2.952607e+003,8.797292e+001
2.954536e+003,8.889464e+001
2.956464e+003,8.969508e+001
2.958393e+003,9.040311e+001
2.960321e+003,9.123653e+001
2.962250e+003,9.237780e+001
2.964178e+003,9.376740e+001
2.966107e+003,9.516728e+001
2.968036e+003,9.646279e+001
2.969964e+003,9.757835e+001
2.971893e+003,9.844894e+001
2.973821e+003,9.909491e+001
2.975750e+003,9.953374e+001
2.977678e+003,9.981550e+001
2.979607e+003,1.000231e+002
2.981535e+003,1.001751e+002
2.983464e+003,1.002130e+002
2.985393e+003,1.001957e+002
2.987321e+003,1.001646e+002
2.989250e+003,1.000928e+002
2.991178e+003,9.999060e+001
2.993106e+003,9.999117e+001
2.995035e+003,9.999937e+001
2.996964e+003,9.999251e+001
2.998892e+003,1.000125e+002
3.000821e+003,1.000415e+002
3.002750e+003,1.000274e+002
3.004678e+003,9.997009e+001
3.006606e+003,9.993374e+001
3.008535e+003,9.990004e+001
3.010463e+003,9.988037e+001
3.012392e+003,9.988090e+001
3.014321e+003,9.987276e+001
3.016249e+003,9.987823e+001
3.018178e+003,9.991208e+001
3.020106e+003,9.990353e+001
3.022035e+003,9.987495e+001
3.023963e+003,9.987428e+001
3.025892e+003,9.989339e+001
3.027820e+003,9.989854e+001
3.029749e+003,9.991570e+001
3.031678e+003,9.994963e+001
3.033606e+003,9.996033e+001
3.035535e+003,9.996210e+001
3.037463e+003,9.997807e+001
3.039392e+003,9.997956e+001
3.041320e+003,9.995000e+001
3.043249e+003,9.993191e+001
3.045177e+003,9.994481e+001
3.047106e+003,9.996367e+001
3.049035e+003,9.992746e+001
3.050963e+003,9.989346e+001
3.052892e+003,9.991469e+001
3.054820e+003,9.992994e+001
3.056749e+003,9.995380e+001
3.058677e+003,9.999042e+001
3.060606e+003,1.000032e+002
3.062534e+003,9.998262e+001
3.064463e+003,9.999312e+001
3.066392e+003,1.000126e+002
3.068320e+003,9.999219e+001
3.070249e+003,9.998512e+001
3.072177e+003,1.000090e+002
3.074105e+003,1.000307e+002
3.076034e+003,1.000228e+002
3.077963e+003,1.000067e+002
3.079891e+003,9.999213e+001
3.081820e+003,9.997487e+001
3.083749e+003,9.995159e+001
3.085677e+003,9.997780e+001
3.087605e+003,1.000063e+002
3.089534e+003,9.999789e+001
3.091462e+003,9.999382e+001
3.093391e+003,1.000042e+002
3.095320e+003,1.000116e+002
3.097248e+003,1.000088e+002
3.099177e+003,1.000257e+002
3.101105e+003,1.000173e+002
3.103034e+003,1.000285e+002
3.104962e+003,1.000563e+002
3.106891e+003,1.000473e+002
3.108819e+003,1.000289e+002
3.110748e+003,1.000232e+002
3.112677e+003,1.000362e+002
3.114605e+003,1.000281e+002
3.116534e+003,1.000011e+002
3.118462e+003,9.999950e+001
3.120391e+003,9.998605e+001
3.122319e+003,9.999940e+001
3.124248e+003,1.000365e+002
3.126176e+003,1.000218e+002
3.128105e+003,9.998479e+001
3.130034e+003,9.997115e+001
3.131962e+003,9.993479e+001
3.133891e+003,9.993650e+001
3.135819e+003,9.996493e+001
3.137748e+003,9.996832e+001
3.139676e+003,9.994923e+001
3.141605e+003,9.994779e+001
3.143533e+003,9.997472e+001
3.145462e+003,1.000064e+002
3.147391e+003,1.000146e+002
3.149319e+003,1.000057e+002
3.151248e+003,9.998369e+001
3.153176e+003,9.995936e+001
3.155104e+003,9.994567e+001
3.157033e+003,9.996428e+001
3.158962e+003,9.996600e+001
3.160890e+003,9.998717e+001
3.162819e+003,9.997775e+001
3.164748e+003,9.992823e+001
3.166676e+003,9.992588e+001
3.168604e+003,9.993946e+001
3.170533e+003,9.991784e+001
3.172461e+003,9.992711e+001
3.174390e+003,9.994244e+001
3.176319e+003,9.994511e+001
3.178247e+003,9.995506e+001
3.180176e+003,9.995531e+001
3.182104e+003,9.993118e+001
3.184033e+003,9.995357e+001
3.185961e+003,9.997237e+001
3.187890e+003,9.992934e+001
3.189818e+003,9.990216e+001
3.191747e+003,9.991230e+001
3.193676e+003,9.991478e+001
3.195604e+003,9.991438e+001
3.197533e+003,9.990582e+001
3.199461e+003,9.991081e+001
3.201390e+003,9.992010e+001
3.203318e+003,9.993251e+001
3.205247e+003,9.995596e+001
3.207175e+003,9.996242e+001
3.209104e+003,9.992584e+001
3.211033e+003,9.992027e+001
3.212961e+003,9.994345e+001
3.214890e+003,9.992931e+001
3.216818e+003,9.990239e+001
3.218747e+003,9.993559e+001
3.220675e+003,9.997675e+001
3.222604e+003,9.999007e+001
3.224532e+003,9.998058e+001
3.226461e+003,9.994248e+001
3.228390e+003,9.993456e+001
3.230318e+003,9.993282e+001
3.232247e+003,9.991090e+001
3.234175e+003,9.993657e+001
3.236104e+003,1.000058e+002
3.238032e+003,1.000301e+002
3.239961e+003,9.998637e+001
3.241889e+003,9.998079e+001
3.243818e+003,9.998334e+001
3.245747e+003,9.996085e+001
3.247675e+003,9.997031e+001
3.249604e+003,9.996960e+001
3.251532e+003,9.996129e+001
3.253460e+003,1.000146e+002
3.255389e+003,1.000063e+002
3.257318e+003,9.997548e+001
3.259246e+003,1.000052e+002
3.261175e+003,1.000397e+002
3.263104e+003,1.000402e+002
3.265032e+003,1.000339e+002
3.266960e+003,1.000033e+002
3.268889e+003,9.995689e+001
3.270817e+003,9.991135e+001
3.272746e+003,9.993144e+001
3.274675e+003,9.995605e+001
3.276603e+003,9.995953e+001
3.278532e+003,9.997229e+001
3.280460e+003,1.000204e+002
3.282389e+003,1.000213e+002
3.284317e+003,9.997127e+001
3.286246e+003,9.996777e+001
3.288174e+003,9.997484e+001
3.290103e+003,9.993956e+001
3.292032e+003,9.994209e+001
3.293960e+003,1.000011e+002
3.295889e+003,1.000254e+002
3.297817e+003,1.000019e+002
3.299746e+003,9.997549e+001
3.301674e+003,9.993923e+001
3.303603e+003,9.993913e+001
3.305531e+003,9.997867e+001
3.307460e+003,9.999504e+001
3.309389e+003,9.992755e+001
3.311317e+003,9.987984e+001
3.313246e+003,9.989233e+001
3.315174e+003,9.993873e+001
3.317103e+003,9.999509e+001
3.319031e+003,1.000050e+002
3.320960e+003,9.999770e+001
3.322888e+003,9.996341e+001
3.324817e+003,9.991313e+001
3.326746e+003,9.990503e+001
3.328674e+003,9.991837e+001
3.330603e+003,9.992458e+001
3.332531e+003,9.992947e+001
3.334459e+003,9.994606e+001
3.336388e+003,9.992550e+001
3.338317e+003,9.989915e+001
3.340245e+003,9.989539e+001
3.342174e+003,9.991061e+001
3.344103e+003,9.992596e+001
3.346031e+003,9.993741e+001
3.347959e+003,9.992827e+001
3.349888e+003,9.995838e+001
3.351816e+003,1.000011e+002
3.353745e+003,1.000008e+002
3.355674e+003,9.999575e+001
3.357602e+003,9.997881e+001
3.359531e+003,9.996166e+001
3.361459e+003,9.998470e+001
3.363388e+003,1.000061e+002
3.365316e+003,9.998531e+001
3.367245e+003,9.996358e+001
3.369173e+003,9.997129e+001
3.371102e+003,1.000031e+002
3.373031e+003,1.000160e+002
3.374959e+003,9.997121e+001
3.376888e+003,9.998996e+001
3.378816e+003,1.000077e+002
3.380745e+003,9.996083e+001
3.382673e+003,9.994720e+001
3.384602e+003,1.000168e+002
3.386530e+003,1.000318e+002
3.388459e+003,9.996823e+001
3.390388e+003,9.991068e+001
3.392316e+003,9.995683e+001
3.394245e+003,1.000432e+002
3.396173e+003,1.000234e+002
3.398102e+003,9.993204e+001
3.400030e+003,9.988216e+001
3.401959e+003,9.994528e+001
3.403887e+003,9.997602e+001
3.405816e+003,9.994907e+001
3.407745e+003,9.991763e+001
3.409673e+003,9.991564e+001
3.411602e+003,9.999246e+001
3.413530e+003,1.000410e+002
3.415458e+003,1.000497e+002
3.417387e+003,1.000507e+002
3.419316e+003,1.000250e+002
3.421244e+003,1.000172e+002
3.423173e+003,1.000095e+002
3.425102e+003,9.998750e+001
3.427030e+003,9.998892e+001
3.428958e+003,9.998652e+001
3.430887e+003,9.998407e+001
3.432815e+003,9.994090e+001
3.434744e+003,9.993379e+001
3.436673e+003,9.993712e+001
3.438601e+003,9.998381e+001
3.440530e+003,9.999858e+001
3.442458e+003,9.999623e+001
3.444387e+003,1.000176e+002
3.446315e+003,1.000055e+002
3.448244e+003,9.999173e+001
3.450172e+003,1.000073e+002
3.452101e+003,1.000535e+002
3.454030e+003,1.000277e+002
3.455958e+003,9.995499e+001
3.457887e+003,9.995921e+001
3.459815e+003,9.992879e+001
3.461744e+003,9.990736e+001
3.463672e+003,9.996443e+001
3.465601e+003,9.997678e+001
3.467529e+003,9.994456e+001
3.469458e+003,9.993768e+001
3.471387e+003,9.993897e+001
3.473315e+003,9.996516e+001
3.475244e+003,9.999522e+001
3.477172e+003,1.000075e+002
3.479101e+003,1.000152e+002
3.481029e+003,1.000210e+002
3.482958e+003,9.999629e+001
3.484886e+003,9.994524e+001
3.486815e+003,9.991096e+001
3.488744e+003,9.992909e+001
3.490672e+003,9.994997e+001
3.492601e+003,9.996770e+001
3.494529e+003,9.997479e+001
3.496458e+003,9.998061e+001
3.498386e+003,9.999323e+001
3.500315e+003,9.996729e+001
3.502243e+003,9.998507e+001
3.504172e+003,9.998510e+001
3.506101e+003,9.996433e+001
3.508029e+003,9.999629e+001
3.509958e+003,1.000459e+002
3.511886e+003,1.000450e+002
3.513814e+003,1.000021e+002
3.515743e+003,9.997961e+001
3.517672e+003,9.999120e+001
3.519600e+003,1.000079e+002
3.521529e+003,9.999379e+001
3.523458e+003,1.000294e+002
3.525386e+003,1.001044e+002
3.527314e+003,1.000755e+002
3.529243e+003,9.998566e+001
3.531171e+003,9.993304e+001
3.533100e+003,9.995132e+001
3.535029e+003,1.000278e+002
3.536957e+003,1.000607e+002
3.538886e+003,1.000491e+002
3.540814e+003,9.997120e+001
3.542743e+003,9.993649e+001
3.544671e+003,9.998253e+001
3.546600e+003,9.999905e+001
3.548528e+003,9.997323e+001
3.550457e+003,9.992853e+001
3.552386e+003,9.996262e+001
3.554314e+003,1.000224e+002
3.556243e+003,1.000192e+002
3.558171e+003,1.000009e+002
3.560100e+003,9.998737e+001
3.562028e+003,1.000114e+002
3.563957e+003,1.000442e+002
3.565885e+003,1.001537e+002
3.567814e+003,1.001494e+002
3.569743e+003,1.000552e+002
3.571671e+003,9.999757e+001
3.573600e+003,9.999335e+001
3.575528e+003,1.000105e+002
3.577457e+003,9.999762e+001
3.579385e+003,9.995235e+001
3.581314e+003,9.991821e+001
3.583242e+003,9.996878e+001
3.585171e+003,9.999110e+001
3.587100e+003,1.000751e+002
3.589028e+003,1.001065e+002
3.590957e+003,1.000056e+002
3.592885e+003,9.996616e+001
3.594813e+003,1.000117e+002
3.596742e+003,1.000506e+002
3.598671e+003,9.998145e+001
3.600599e+003,9.991993e+001
3.602528e+003,9.992796e+001
3.604457e+003,9.999010e+001
3.606385e+003,1.000273e+002
3.608313e+003,1.000447e+002
3.610242e+003,1.000414e+002
3.612170e+003,1.000054e+002
3.614099e+003,1.000311e+002
3.616028e+003,1.000656e+002
3.617956e+003,1.000458e+002
3.619885e+003,9.997446e+001
3.621813e+003,9.998050e+001
3.623742e+003,1.000006e+002
3.625670e+003,1.000047e+002
3.627599e+003,9.999829e+001
3.629527e+003,1.000699e+002
3.631456e+003,1.000135e+002
3.633385e+003,9.992702e+001
3.635313e+003,9.995775e+001
3.637242e+003,1.000000e+002
3.639170e+003,1.000271e+002
3.641099e+003,1.000445e+002
3.643027e+003,1.000632e+002
3.644956e+003,1.000410e+002
3.646884e+003,1.000973e+002
3.648813e+003,1.002086e+002
3.650742e+003,1.000537e+002
3.652670e+003,9.998917e+001
3.654599e+003,9.996458e+001
3.656527e+003,9.998592e+001
3.658456e+003,1.000300e+002
3.660384e+003,1.000149e+002
3.662313e+003,1.000322e+002
3.664241e+003,1.000605e+002
3.666170e+003,1.000555e+002
3.668099e+003,1.000200e+002
3.670027e+003,1.000489e+002
3.671956e+003,1.000645e+002
3.673884e+003,1.000011e+002
3.675813e+003,1.000680e+002
3.677741e+003,1.001285e+002
3.679670e+003,1.000851e+002
3.681598e+003,1.000222e+002
3.683527e+003,9.998384e+001
3.685456e+003,9.997166e+001
3.687384e+003,9.997131e+001
3.689313e+003,1.000441e+002
3.691241e+003,1.000439e+002
3.693169e+003,9.999706e+001
3.695098e+003,9.998564e+001
3.697027e+003,9.996231e+001
3.698955e+003,9.992625e+001
3.700884e+003,9.990131e+001
3.702813e+003,9.993918e+001
3.704741e+003,9.997105e+001
3.706669e+003,9.997996e+001
3.708598e+003,1.000077e+002
3.710526e+003,1.000408e+002
3.712455e+003,1.000066e+002
3.714384e+003,9.998013e+001
3.716312e+003,9.993921e+001
3.718241e+003,9.986972e+001
3.720169e+003,9.985023e+001
3.722098e+003,9.993253e+001
3.724026e+003,9.997736e+001
3.725955e+003,9.997076e+001
3.727883e+003,9.996477e+001
3.729812e+003,9.993614e+001
3.731741e+003,9.999544e+001
3.733669e+003,1.001062e+002
3.735598e+003,1.001375e+002
3.737526e+003,1.000979e+002
3.739455e+003,1.000085e+002
3.741383e+003,1.000417e+002
3.743312e+003,1.001534e+002
3.745240e+003,1.002419e+002
3.747169e+003,1.001618e+002
3.749098e+003,1.001895e+002
3.751026e+003,1.002736e+002
3.752955e+003,1.001078e+002
3.754883e+003,1.000019e+002
3.756812e+003,9.996701e+001
3.758740e+003,9.998737e+001
3.760669e+003,9.998839e+001
3.762597e+003,9.997110e+001
3.764526e+003,9.995647e+001
3.766455e+003,9.999878e+001
3.768383e+003,1.000081e+002
3.770312e+003,1.000390e+002
3.772240e+003,1.000446e+002
3.774168e+003,1.000089e+002
3.776097e+003,1.000028e+002
3.778026e+003,1.000219e+002
3.779954e+003,1.000516e+002
3.781883e+003,1.000645e+002
3.783812e+003,1.000336e+002
3.785740e+003,9.999905e+001
3.787668e+003,9.999053e+001
3.789597e+003,9.998373e+001
3.791525e+003,9.999401e+001
3.793454e+003,1.000219e+002
3.795383e+003,1.000484e+002
3.797311e+003,1.000946e+002
3.799240e+003,1.000682e+002
3.801168e+003,1.001105e+002
3.803097e+003,1.002340e+002
3.805025e+003,1.001352e+002
3.806954e+003,1.000311e+002
3.808882e+003,1.000199e+002
3.810811e+003,1.000415e+002
3.812740e+003,1.000760e+002
3.814668e+003,1.000305e+002
3.816597e+003,1.000092e+002
3.818525e+003,1.000536e+002
3.820454e+003,1.000219e+002
3.822382e+003,1.000347e+002
3.824311e+003,1.000400e+002
3.826239e+003,1.000340e+002
3.828168e+003,1.000215e+002
3.830097e+003,9.997499e+001
3.832025e+003,9.995683e+001
3.833954e+003,9.999020e+001
3.835882e+003,1.000845e+002
3.837811e+003,1.002150e+002
3.839739e+003,1.002358e+002
3.841668e+003,1.001233e+002
3.843596e+003,1.000411e+002
3.845525e+003,1.000101e+002
3.847454e+003,1.000301e+002
3.849382e+003,1.000444e+002
3.851311e+003,1.000547e+002
3.853239e+003,1.000685e+002
3.855167e+003,1.000105e+002
3.857096e+003,9.996709e+001
3.859025e+003,9.999313e+001
3.860953e+003,1.000345e+002
3.862882e+003,1.000751e+002
3.864811e+003,1.001295e+002
3.866739e+003,1.001034e+002
3.868667e+003,1.000308e+002
3.870596e+003,1.000420e+002
3.872524e+003,1.000494e+002
3.874453e+003,1.000409e+002
3.876382e+003,9.999446e+001
3.878310e+003,9.992793e+001
3.880239e+003,9.991945e+001
3.882167e+003,1.000211e+002
3.884096e+003,1.000153e+002
3.886024e+003,1.000044e+002
3.887953e+003,1.000386e+002
3.889881e+003,1.000197e+002
3.891810e+003,1.000446e+002
3.893739e+003,1.000772e+002
3.895667e+003,1.000281e+002
3.897596e+003,9.998338e+001
3.899524e+003,1.000085e+002
3.901453e+003,1.000305e+002
3.903381e+003,1.000264e+002
3.905310e+003,1.000742e+002
3.907238e+003,1.000557e+002
3.909167e+003,1.000247e+002
3.911096e+003,1.000220e+002
3.913024e+003,1.000080e+002
3.914953e+003,1.000123e+002
3.916881e+003,1.000413e+002
3.918810e+003,1.000877e+002
3.920738e+003,1.000646e+002
3.922667e+003,9.998576e+001
3.924595e+003,9.995709e+001
3.926524e+003,9.995111e+001
3.928453e+003,9.994728e+001
3.930381e+003,9.995515e+001
3.932310e+003,9.993547e+001
3.934238e+003,9.994274e+001
3.936167e+003,9.997121e+001
3.938095e+003,9.999731e+001
3.940024e+003,9.999336e+001
3.941952e+003,9.991200e+001
3.943881e+003,9.992542e+001
3.945810e+003,9.996036e+001
3.947738e+003,9.996510e+001
3.949667e+003,1.000209e+002
3.951595e+003,1.000304e+002
3.953523e+003,9.997118e+001
3.955452e+003,9.993071e+001
3.957381e+003,9.997079e+001
3.959309e+003,9.999116e+001
3.961238e+003,9.995010e+001
3.963167e+003,9.994786e+001
3.965095e+003,9.995469e+001
3.967023e+003,9.994619e+001
3.968952e+003,9.995250e+001
3.970880e+003,9.999267e+001
3.972809e+003,1.000241e+002
3.974738e+003,9.998873e+001
3.976666e+003,9.994559e+001
3.978595e+003,9.994196e+001
3.980523e+003,9.998124e+001
3.982452e+003,9.998490e+001
3.984380e+003,9.997412e+001
3.986309e+003,9.997881e+001
3.988237e+003,9.996108e+001
3.990166e+003,9.996565e+001
3.992095e+003,1.000172e+002
3.994023e+003,1.000698e+002
3.995952e+003,1.000598e+002
3.997880e+003,9.998591e+001
3.999809e+003,9.995222e+001
